## id x[0] y[0] z[0] T[0] x[1] y[1] z[1] T[1] x[2] y[2] z[2] T[2] 0 0 0 1
0	  -1.00000    0.00020   -0.00273    0.00000   -0.00274   -0.07379    0.99727   79.50060    0.00000    0.99727    0.07379   12.98750 0 0 0 1
1	  -0.99994    0.00079   -0.01074   -0.62743   -0.01077   -0.07357    0.99723   79.50060    0.00000    0.99729    0.07358   12.97140 0 0 0 1
2	  -0.99941    0.00242   -0.03416   -2.46004   -0.03425   -0.07055    0.99692   79.46470   -0.00000    0.99750    0.07059   12.73670 0 0 0 1
3	  -0.99746    0.00426   -0.07117   -5.35284   -0.07130   -0.05963    0.99567   79.32170    0.00000    0.99821    0.05979   11.88860 0 0 0 1
4	  -0.99287    0.00449   -0.11914   -9.09605   -0.11922   -0.03742    0.99216   78.97920    0.00000    0.99929    0.03769   10.15800 0 0 0 1
5	  -0.98427    0.00088   -0.17667  -13.58660   -0.17668   -0.00488    0.98426   78.33150    0.00000    0.99999    0.00496    7.59992 0 0 0 1
6	  -0.96942   -0.00795   -0.24528  -18.96450   -0.24541    0.03142    0.96891   77.20700    0.00000    0.99948   -0.03241    4.67862 0 0 0 1
7	  -0.94393   -0.01807   -0.32966  -25.60520   -0.33016    0.05165    0.94251   75.26680   -0.00000    0.99850   -0.05472    2.92695 0 0 0 1
8	  -0.90603   -0.01367   -0.42300  -32.91310   -0.42322    0.02927    0.90555   72.36840   -0.00000    0.99948   -0.03230    4.68284 0 0 0 1
9	  -0.85658    0.00670   -0.51597  -40.22340   -0.51602   -0.01111    0.85651   68.57530    0.00000    0.99992    0.01298    8.22958 0 0 0 1
10	  -0.78789    0.02255   -0.61541  -48.11890   -0.61582   -0.02885    0.78736   63.28730   -0.00000    0.99933    0.03662   10.08840 0 0 0 1
11	  -0.70305   -0.00197   -0.71114  -55.69970   -0.71114    0.00195    0.70304   56.72700   -0.00000    1.00000   -0.00277    6.99486 0 0 0 1
12	  -0.60216   -0.04251   -0.79724  -62.68990   -0.79837    0.03207    0.60131   48.89440    0.00000    0.99858   -0.05325    3.01115 0 0 0 1
13	  -0.47735   -0.03554   -0.87800  -69.19150   -0.87872    0.01930    0.47696   39.15350   -0.00000    0.99918   -0.04044    4.01590 0 0 0 1
14	  -0.33962    0.00595   -0.94054  -74.27680   -0.94056   -0.00215    0.33962   28.34790   -0.00000    0.99998    0.00632    7.71334 0 0 0 1
15	  -0.18380   -0.01160   -0.98289  -77.86440   -0.98296    0.00217    0.18379   16.04980   -0.00000    0.99993   -0.01180    6.27528 0 0 0 1
16	  -0.02267   -0.06413   -0.99768  -79.43590   -0.99974    0.00145    0.02262    3.25625    0.00000    0.99794   -0.06414    2.09186 0 0 0 1
17	   0.14846   -0.03767   -0.98820  -78.81610   -0.98892   -0.00565   -0.14835  -10.41350    0.00000    0.99927   -0.03809    4.16643 0 0 0 1
18	   0.31635    0.01034   -0.94859  -75.82370   -0.94864    0.00345   -0.31633  -23.90600   -0.00000    0.99994    0.01090    8.08665 0 0 0 1
19	   0.47967   -0.02650   -0.87705  -70.31200   -0.87745   -0.01449   -0.47945  -37.10300    0.00000    0.99954   -0.03020    4.78394 0 0 0 1
20	   0.63163   -0.03878   -0.77430  -62.25640   -0.77527   -0.03159   -0.63084  -49.44490   -0.00000    0.99875   -0.05002    3.17709 0 0 0 1
21	   0.75816    0.01276   -0.65195  -52.43280   -0.65207    0.01483   -0.75801  -59.76050   -0.00000    0.99981    0.01956    8.79230 0 0 0 1
22	   0.86611    0.00624   -0.49982  -40.20610   -0.49985    0.01080   -0.86604  -68.58540   -0.00000    0.99992    0.01247    8.22153 0 0 0 1
23	   0.94225   -0.01747   -0.33446  -26.89450   -0.33491   -0.04916   -0.94097  -74.81560    0.00000    0.99864   -0.05217    2.98403 0 0 0 1
24	   0.98713    0.00175   -0.15990  -12.73410   -0.15991    0.01082   -0.98707  -78.47450   -0.00000    0.99994    0.01096    8.10004 0 0 0 1
25	   0.99976   -0.00150    0.02164    1.96947    0.02169    0.06915   -0.99737  -79.47850   -0.00000    0.99760    0.06917   12.82500 0 0 0 1
26	   0.98049    0.00259    0.19657   16.11340    0.19658   -0.01291   -0.98040  -77.85130   -0.00000    0.99991   -0.01317    6.14778 0 0 0 1
27	   0.92710    0.01601    0.37446   30.48370    0.37480   -0.03960   -0.92626  -73.42540   -0.00000    0.99909   -0.04271    3.75983 0 0 0 1
28	   0.84481   -0.01510    0.53485   43.34350    0.53506    0.02384   -0.84448  -66.64810   -0.00000    0.99960    0.02822    9.48820 0 0 0 1
29	   0.73110   -0.00137    0.68227   55.07330    0.68227    0.00147   -0.73110  -57.33540    0.00000    1.00000    0.00201    7.37412 0 0 0 1
30	   0.59744    0.04610    0.80059   64.51730    0.80191   -0.03434   -0.59645  -46.45700   -0.00000    0.99835   -0.05748    2.59562 0 0 0 1
31	   0.44287    0.01356    0.89648   71.88650    0.89659   -0.00670   -0.44282  -33.95230   -0.00000    0.99989   -0.01512    6.00377 0 0 0 1
32	   0.27475   -0.00451    0.96151   76.82940    0.96152    0.00129   -0.27474  -20.44200   -0.00000    0.99999    0.00469    7.58624 0 0 0 1
33	   0.10732    0.05236    0.99284   79.18630    0.99422   -0.00565   -0.10717   -7.07433    0.00000    0.99861   -0.05266    3.02364 0 0 0 1
34	  -0.06499    0.05452    0.99640   79.22770    0.99789    0.00355    0.06489    6.59630   -0.00000    0.99851   -0.05463    2.88030 0 0 0 1
35	  -0.22405   -0.00057    0.97458   77.16360    0.97458   -0.00013    0.22404   19.14040   -0.00000    1.00000    0.00058    7.25868 0 0 0 1
36	  -0.37799    0.00298    0.92580   73.11710    0.92581    0.00122    0.37799   31.21550   -0.00000    0.99999   -0.00322    6.95896 0 0 0 1
37	  -0.51198    0.04369    0.85789   67.70320    0.85900    0.02604    0.51131   41.67530   -0.00000    0.99871   -0.05086    3.21136 0 0 0 1
38	  -0.63250    0.03378    0.77382   60.94930    0.77456    0.02758    0.63190   51.04670   -0.00000    0.99905   -0.04361    3.78991 0 0 0 1
39	  -0.72794   -0.00732    0.68560   53.89540    0.68564   -0.00777    0.72790   58.44430   -0.00000    0.99994    0.01068    8.04891 0 0 0 1
40	  -0.80982   -0.02162    0.58629   46.09240    0.58668   -0.02985    0.80927   64.77820    0.00000    0.99932    0.03686   10.09690 0 0 0 1
41	  -0.87267   -0.00072    0.48830   38.36440    0.48830   -0.00128    0.87267   69.63190   -0.00000    1.00000    0.00147    7.32737 0 0 0 1
42	  -0.91846    0.01642    0.39517   31.09660    0.39551    0.03814    0.91767   73.16780   -0.00000    0.99914   -0.04152    3.96770 0 0 0 1
43	  -0.95317    0.01600    0.30202   23.82060    0.30244    0.05042    0.95183   75.85060   -0.00000    0.99860   -0.05289    3.07818 0 0 0 1
44	  -0.97511    0.00517    0.22167   17.51730    0.22173    0.02274    0.97484   77.54770   -0.00000    0.99973   -0.02332    5.39203 0 0 0 1
45	  -0.98775   -0.00218    0.15604   12.39110    0.15605   -0.01377    0.98765   78.52940    0.00000    0.99990    0.01394    8.30088 0 0 0 1
46	  -0.99489   -0.00448    0.10083    8.08963    0.10093   -0.04411    0.99391   79.08880    0.00000    0.99902    0.04434   10.67630 0 0 0 1
47	  -0.99846   -0.00352    0.05535    4.54199    0.05546   -0.06340    0.99645   79.37250   -0.00000    0.99798    0.06349   12.17790 0 0 0 1
48	  -0.99977   -0.00155    0.02149    1.89490    0.02154   -0.07186    0.99718   79.48030    0.00000    0.99741    0.07187   12.83690 0 0 0 1
49	  -1.00000   -0.00013    0.00180    0.35425    0.00180   -0.07373    0.99728   79.50060   -0.00000    0.99728    0.07373   12.98310 0 0 0 1
